# FSPS SSP (MIST/MILES, solar Z, Kroupa IMF), 10 Myr -- young population
# lambda[um]   L_lambda[arb, shape only; normalized to unit peak]
  9.100000e-03   1.422734e-23
  9.400000e-03   1.333370e-23
  9.600000e-03   1.278392e-23
  9.800000e-03   1.226804e-23
  1.000000e-02   1.178363e-23
  1.020000e-02   1.132745e-23
  1.040000e-02   1.091066e-23
  1.060000e-02   1.053130e-23
  1.080000e-02   1.020025e-23
  1.100000e-02   9.953090e-24
  1.140000e-02   9.859381e-24
  1.180000e-02   1.090980e-23
  1.210000e-02   1.314646e-23
  1.250000e-02   1.968331e-23
  1.270000e-02   2.557904e-23
  1.280000e-02   2.934773e-23
  1.310000e-02   4.505609e-23
  1.320000e-02   5.205713e-23
  1.340000e-02   6.962445e-23
  1.370000e-02   1.065445e-22
  1.400000e-02   1.602014e-22
  1.430000e-02   2.380742e-22
  1.470000e-02   3.949729e-22
  1.510000e-02   6.471528e-22
  1.550000e-02   1.083268e-21
  1.590000e-02   1.767366e-21
  1.620000e-02   2.570411e-21
  1.660000e-02   4.248740e-21
  1.700000e-02   7.124111e-21
  1.730000e-02   1.054369e-20
  1.770000e-02   1.798301e-20
  1.800000e-02   2.708326e-20
  1.820000e-02   3.586812e-20
  1.860000e-02   6.435588e-20
  1.910000e-02   1.437001e-19
  1.940000e-02   2.468373e-19
  1.980000e-02   5.299818e-19
  2.020000e-02   1.270185e-18
  2.050000e-02   2.560080e-18
  2.100000e-02   8.586102e-18
  2.160000e-02   3.753994e-17
  2.200000e-02   9.910962e-17
  2.230000e-02   2.056102e-16
  2.270000e-02   4.101881e-16
  2.300000e-02   4.107035e-13
  2.340000e-02   9.180139e-12
  2.400000e-02   6.250914e-11
  2.460000e-02   1.023078e-10
  2.520000e-02   1.233611e-10
  2.570000e-02   3.446575e-10
  2.600000e-02   1.401583e-09
  2.640000e-02   4.783449e-10
  2.690000e-02   4.553475e-09
  2.740000e-02   9.705280e-09
  2.790000e-02   2.968446e-09
  2.840000e-02   2.654276e-07
  2.900000e-02   6.033082e-08
  2.960000e-02   3.398728e-07
  3.010000e-02   4.143833e-07
  3.080000e-02   2.733593e-07
  3.180000e-02   1.920345e-06
  3.280000e-02   3.523665e-07
  3.380000e-02   5.131571e-06
  3.480000e-02   9.304133e-06
  3.570000e-02   8.331150e-07
  3.660000e-02   2.165309e-05
  3.750000e-02   2.574880e-05
  3.850000e-02   1.722196e-06
  3.950000e-02   2.646270e-05
  4.050000e-02   2.415180e-05
  4.140000e-02   7.306136e-05
  4.220000e-02   8.421217e-05
  4.300000e-02   2.055887e-04
  4.410000e-02   1.232963e-04
  4.510000e-02   8.727029e-05
  4.600000e-02   1.100609e-04
  4.700000e-02   2.181636e-04
  4.800000e-02   3.837991e-04
  4.900000e-02   3.186294e-05
  5.000000e-02   4.130981e-04
  5.060000e-02   9.321104e-06
  5.120000e-02   1.077456e-03
  5.200000e-02   9.960290e-04
  5.300000e-02   1.484602e-03
  5.400000e-02   1.543640e-03
  5.500000e-02   5.395564e-04
  5.600000e-02   1.801234e-03
  5.700000e-02   2.535117e-03
  5.800000e-02   2.111977e-03
  5.900000e-02   3.412687e-03
  6.000000e-02   3.505766e-03
  6.100000e-02   2.436716e-03
  6.200000e-02   5.061330e-03
  6.300000e-02   4.119644e-03
  6.400000e-02   5.112672e-03
  6.500000e-02   5.587173e-03
  6.580000e-02   4.783673e-03
  6.650000e-02   3.023818e-03
  6.750000e-02   7.265681e-03
  6.850000e-02   7.132277e-03
  6.950000e-02   8.335957e-03
  7.050000e-02   1.011278e-02
  7.160000e-02   8.423959e-03
  7.260000e-02   8.121461e-03
  7.350000e-02   1.070565e-02
  7.450000e-02   3.704434e-03
  7.550000e-02   1.358412e-02
  7.650000e-02   1.767082e-02
  7.750000e-02   1.365755e-02
  7.850000e-02   4.996178e-03
  7.950000e-02   1.348205e-02
  8.050000e-02   1.269656e-02
  8.150000e-02   1.136291e-02
  8.250000e-02   1.707857e-02
  8.350000e-02   5.900384e-02
  8.450000e-02   2.210233e-02
  8.550000e-02   1.676458e-02
  8.650000e-02   2.248760e-02
  8.750000e-02   1.822111e-02
  8.850000e-02   2.113061e-02
  8.950000e-02   1.959474e-02
  9.050000e-02   2.287882e-02
  9.150000e-02   6.834184e-01
  9.250000e-02   3.482491e-01
  9.350000e-02   6.207581e-01
  9.450000e-02   4.483006e-01
  9.550000e-02   2.482425e-01
  9.650000e-02   9.512290e-01
  9.750000e-02   5.457545e-02
  9.850000e-02   3.306334e-01
  9.950000e-02   4.050337e-01
  1.005000e-01   8.987559e-01
  1.015000e-01   6.292018e-01
  1.025000e-01   6.241823e-01
  1.035000e-01   4.436106e-01
  1.045000e-01   8.449820e-01
  1.055000e-01   8.495723e-01
  1.065000e-01   9.504130e-01
  1.075000e-01   1.000000e+00
  1.085000e-01   4.884690e-01
  1.095000e-01   8.891406e-01
  1.105000e-01   7.661617e-01
  1.115000e-01   7.729762e-01
  1.125000e-01   4.543420e-01
  1.135000e-01   6.205761e-01
  1.145000e-01   4.210100e-01
  1.155000e-01   4.944350e-01
  1.165000e-01   6.956718e-01
  1.175000e-01   2.479158e-01
  1.185000e-01   5.565689e-01
  1.195000e-01   7.437642e-01
  1.205000e-01   5.778622e-01
  1.215000e-01   5.143960e-01
  1.225000e-01   5.377087e-01
  1.235000e-01   6.989198e-01
  1.245000e-01   4.520905e-01
  1.255000e-01   6.066626e-01
  1.265000e-01   6.133901e-01
  1.275000e-01   6.744572e-01
  1.285000e-01   6.020688e-01
  1.295000e-01   4.285473e-01
  1.305000e-01   5.701038e-01
  1.315000e-01   5.478188e-01
  1.325000e-01   4.548676e-01
  1.335000e-01   4.838429e-01
  1.345000e-01   5.458385e-01
  1.355000e-01   4.214739e-01
  1.365000e-01   5.387085e-01
  1.375000e-01   2.888515e-01
  1.385000e-01   4.567537e-01
  1.395000e-01   4.834410e-01
  1.405000e-01   5.434741e-01
  1.415000e-01   4.178700e-01
  1.425000e-01   4.086290e-01
  1.435000e-01   4.155792e-01
  1.442000e-01   4.086554e-01
  1.447000e-01   4.289022e-01
  1.455000e-01   3.272773e-01
  1.465000e-01   3.441971e-01
  1.475000e-01   4.091030e-01
  1.485000e-01   3.999720e-01
  1.495000e-01   4.270516e-01
  1.505000e-01   3.578700e-01
  1.512000e-01   2.661871e-01
  1.517000e-01   3.762712e-01
  1.525000e-01   2.448869e-01
  1.535000e-01   3.522861e-01
  1.545000e-01   1.216204e-01
  1.555000e-01   3.366417e-01
  1.565000e-01   2.801551e-01
  1.575000e-01   2.510683e-01
  1.585000e-01   2.663995e-01
  1.595000e-01   2.528484e-01
  1.605000e-01   3.463747e-01
  1.615000e-01   3.507933e-01
  1.625000e-01   3.347058e-01
  1.635000e-01   2.881027e-01
  1.645000e-01   3.051550e-01
  1.655000e-01   3.077181e-01
  1.665000e-01   2.716283e-01
  1.672000e-01   2.387546e-01
  1.677000e-01   2.621407e-01
  1.685000e-01   3.242196e-01
  1.695000e-01   2.545622e-01
  1.705000e-01   2.912079e-01
  1.715000e-01   2.702349e-01
  1.725000e-01   2.291787e-01
  1.735000e-01   2.617380e-01
  1.745000e-01   2.309044e-01
  1.755000e-01   2.902849e-01
  1.765000e-01   2.749396e-01
  1.775000e-01   1.932278e-01
  1.785000e-01   2.583802e-01
  1.795000e-01   2.750753e-01
  1.805000e-01   2.529724e-01
  1.815000e-01   2.380928e-01
  1.825000e-01   2.025130e-01
  1.835000e-01   2.393038e-01
  1.845000e-01   2.313821e-01
  1.855000e-01   2.173669e-01
  1.865000e-01   1.882024e-01
  1.875000e-01   2.378569e-01
  1.885000e-01   1.539635e-01
  1.895000e-01   1.689588e-01
  1.905000e-01   2.300256e-01
  1.915000e-01   1.845677e-01
  1.925000e-01   1.737322e-01
  1.935000e-01   2.177494e-01
  1.945000e-01   2.176007e-01
  1.955000e-01   1.412160e-01
  1.967000e-01   2.116374e-01
  1.976000e-01   1.896830e-01
  1.984000e-01   1.682547e-01
  1.995000e-01   1.788290e-01
  2.005000e-01   1.686384e-01
  2.015000e-01   1.913083e-01
  2.025000e-01   1.893064e-01
  2.035000e-01   1.306993e-01
  2.045000e-01   1.519024e-01
  2.055000e-01   1.735345e-01
  2.065000e-01   1.783898e-01
  2.074000e-01   1.827529e-01
  2.078000e-01   1.355226e-01
  2.085000e-01   1.257550e-01
  2.095000e-01   1.505490e-01
  2.105000e-01   1.711180e-01
  2.115000e-01   1.372821e-01
  2.125000e-01   1.760227e-01
  2.135000e-01   1.724348e-01
  2.145000e-01   1.688640e-01
  2.155000e-01   1.694662e-01
  2.165000e-01   1.670667e-01
  2.175000e-01   1.647959e-01
  2.185000e-01   1.615673e-01
  2.195000e-01   1.613543e-01
  2.205000e-01   1.589552e-01
  2.215000e-01   1.561058e-01
  2.225000e-01   1.529820e-01
  2.235000e-01   1.522822e-01
  2.245000e-01   1.503941e-01
  2.255000e-01   1.473311e-01
  2.265000e-01   1.467064e-01
  2.275000e-01   1.452682e-01
  2.285000e-01   1.442060e-01
  2.295000e-01   1.401579e-01
  2.305000e-01   1.395514e-01
  2.315000e-01   1.365773e-01
  2.325000e-01   1.282651e-01
  2.335000e-01   1.317924e-01
  2.345000e-01   1.304624e-01
  2.355000e-01   1.298897e-01
  2.365000e-01   1.274740e-01
  2.375000e-01   1.261288e-01
  2.385000e-01   1.239861e-01
  2.395000e-01   1.235479e-01
  2.405000e-01   1.211790e-01
  2.415000e-01   1.202300e-01
  2.425000e-01   1.196647e-01
  2.435000e-01   1.171905e-01
  2.445000e-01   1.169476e-01
  2.455000e-01   1.156931e-01
  2.465000e-01   1.140317e-01
  2.475000e-01   1.122755e-01
  2.485000e-01   1.115155e-01
  2.495000e-01   1.072203e-01
  2.505000e-01   1.091971e-01
  2.513000e-01   1.064488e-01
  2.518000e-01   1.073127e-01
  2.525000e-01   1.056156e-01
  2.535000e-01   1.044707e-01
  2.545000e-01   1.027516e-01
  2.555000e-01   1.026961e-01
  2.565000e-01   1.013434e-01
  2.575000e-01   1.010394e-01
  2.585000e-01   9.984204e-02
  2.595000e-01   9.868306e-02
  2.605000e-01   9.718302e-02
  2.615000e-01   9.636907e-02
  2.625000e-01   9.559976e-02
  2.635000e-01   9.482809e-02
  2.645000e-01   9.477205e-02
  2.655000e-01   9.391031e-02
  2.665000e-01   9.169236e-02
  2.675000e-01   9.140904e-02
  2.685000e-01   9.047325e-02
  2.695000e-01   8.880800e-02
  2.705000e-01   8.796265e-02
  2.715000e-01   8.674786e-02
  2.725000e-01   8.590767e-02
  2.735000e-01   8.552795e-02
  2.745000e-01   8.322458e-02
  2.755000e-01   8.257617e-02
  2.765000e-01   8.203819e-02
  2.775000e-01   8.186716e-02
  2.785000e-01   8.073498e-02
  2.795000e-01   7.798006e-02
  2.805000e-01   7.809962e-02
  2.815000e-01   7.855766e-02
  2.825000e-01   7.783616e-02
  2.835000e-01   7.616994e-02
  2.845000e-01   7.568264e-02
  2.855000e-01   7.484460e-02
  2.865000e-01   7.475947e-02
  2.875000e-01   7.384307e-02
  2.885000e-01   7.315991e-02
  2.895000e-01   7.230903e-02
  2.910000e-01   7.162571e-02
  2.930000e-01   7.002547e-02
  2.950000e-01   6.838897e-02
  2.970000e-01   6.732424e-02
  2.990000e-01   6.598682e-02
  3.010000e-01   6.469532e-02
  3.030000e-01   6.365637e-02
  3.050000e-01   6.241803e-02
  3.070000e-01   6.118888e-02
  3.090000e-01   5.998038e-02
  3.110000e-01   5.886767e-02
  3.130000e-01   5.766510e-02
  3.150000e-01   5.673528e-02
  3.170000e-01   5.557190e-02
  3.190000e-01   5.422707e-02
  3.210000e-01   5.354389e-02
  3.230000e-01   5.236387e-02
  3.250000e-01   5.162923e-02
  3.270000e-01   5.078749e-02
  3.290000e-01   4.985067e-02
  3.310000e-01   4.905201e-02
  3.330000e-01   4.808868e-02
  3.350000e-01   4.717389e-02
  3.370000e-01   4.628130e-02
  3.390000e-01   4.553660e-02
  3.410000e-01   4.483978e-02
  3.430000e-01   4.392739e-02
  3.450000e-01   4.348081e-02
  3.470000e-01   4.278115e-02
  3.490000e-01   4.206342e-02
  3.510000e-01   4.149081e-02
  3.530000e-01   4.079128e-02
  3.550000e-01   4.023993e-02
  3.570000e-01   3.939619e-02
  3.590000e-01   3.864030e-02
  3.601827e-01   3.866367e-02
  3.602727e-01   3.845002e-02
  3.603628e-01   3.828319e-02
  3.604528e-01   3.829994e-02
  3.605428e-01   3.830044e-02
  3.606329e-01   3.827512e-02
  3.607229e-01   3.830065e-02
  3.608129e-01   3.824186e-02
  3.609029e-01   3.797481e-02
  3.609929e-01   3.774345e-02
  3.610830e-01   3.771938e-02
  3.611730e-01   3.770613e-02
  3.612630e-01   3.755706e-02
  3.613530e-01   3.730104e-02
  3.614430e-01   3.721531e-02
  3.615331e-01   3.746353e-02
  3.616231e-01   3.782458e-02
  3.617131e-01   3.803539e-02
  3.618032e-01   3.792547e-02
  3.618932e-01   3.766040e-02
  3.619832e-01   3.748568e-02
  3.620732e-01   3.750823e-02
  3.621633e-01   3.768233e-02
  3.622533e-01   3.778225e-02
  3.623433e-01   3.776992e-02
  3.624333e-01   3.771241e-02
  3.625233e-01   3.773404e-02
  3.626134e-01   3.793912e-02
  3.627034e-01   3.813372e-02
  3.627934e-01   3.805607e-02
  3.628834e-01   3.789438e-02
  3.629734e-01   3.778166e-02
  3.630635e-01   3.750366e-02
  3.631535e-01   3.708010e-02
  3.632435e-01   3.678216e-02
  3.633336e-01   3.671749e-02
  3.634236e-01   3.651590e-02
  3.635136e-01   3.626823e-02
  3.636036e-01   3.643068e-02
  3.636936e-01   3.678761e-02
  3.637837e-01   3.707605e-02
  3.638737e-01   3.726134e-02
  3.639637e-01   3.735660e-02
  3.640537e-01   3.737652e-02
  3.641437e-01   3.729515e-02
  3.642338e-01   3.719925e-02
  3.643238e-01   3.714134e-02
  3.644138e-01   3.708843e-02
  3.645039e-01   3.696692e-02
  3.645939e-01   3.689605e-02
  3.646839e-01   3.691891e-02
  3.647739e-01   4.059731e-02
  3.648640e-01   4.186191e-02
  3.649540e-01   4.183776e-02
  3.650440e-01   4.170863e-02
  3.651340e-01   4.169478e-02
  3.652240e-01   4.175201e-02
  3.653141e-01   4.178668e-02
  3.654041e-01   4.180519e-02
  3.654941e-01   4.176141e-02
  3.655841e-01   4.170838e-02
  3.656742e-01   4.177041e-02
  3.657642e-01   4.186405e-02
  3.658542e-01   4.191770e-02
  3.659442e-01   4.192147e-02
  3.660343e-01   4.188790e-02
  3.661243e-01   4.185325e-02
  3.662143e-01   4.176189e-02
  3.663043e-01   4.160299e-02
  3.663943e-01   4.144682e-02
  3.664844e-01   4.135310e-02
  3.665744e-01   4.144557e-02
  3.666644e-01   4.153363e-02
  3.667544e-01   4.149127e-02
  3.668444e-01   4.149242e-02
  3.669345e-01   4.146458e-02
  3.670245e-01   4.134317e-02
  3.671145e-01   4.129679e-02
  3.672046e-01   4.137866e-02
  3.672946e-01   4.151927e-02
  3.673846e-01   4.158496e-02
  3.674746e-01   4.158706e-02
  3.675646e-01   4.165793e-02
  3.676547e-01   4.162788e-02
  3.677447e-01   4.142694e-02
  3.678347e-01   4.122397e-02
  3.679247e-01   4.112137e-02
  3.680148e-01   4.109951e-02
  3.681048e-01   4.116634e-02
  3.681948e-01   4.126718e-02
  3.682848e-01   4.126277e-02
  3.683749e-01   4.127561e-02
  3.684649e-01   4.132219e-02
  3.685549e-01   4.123314e-02
  3.686449e-01   4.110249e-02
  3.687350e-01   4.092688e-02
  3.688250e-01   4.090107e-02
  3.689150e-01   4.116918e-02
  3.690050e-01   4.146122e-02
  3.690950e-01   4.149909e-02
  3.691851e-01   4.136050e-02
  3.692751e-01   4.130598e-02
  3.693651e-01   4.139220e-02
  3.694551e-01   4.146521e-02
  3.695451e-01   4.152603e-02
  3.696352e-01   4.144953e-02
  3.697252e-01   4.110477e-02
  3.698152e-01   4.083497e-02
  3.699052e-01   4.117800e-02
  3.699953e-01   4.188261e-02
  3.700853e-01   4.234003e-02
  3.701753e-01   4.228997e-02
  3.702653e-01   4.172523e-02
  3.703554e-01   4.078170e-02
  3.704454e-01   3.974154e-02
  3.705354e-01   3.908447e-02
  3.706254e-01   3.927822e-02
  3.707155e-01   4.024993e-02
  3.708055e-01   4.130700e-02
  3.708955e-01   4.178901e-02
  3.709855e-01   4.161959e-02
  3.710755e-01   4.100977e-02
  3.711656e-01   4.018908e-02
  3.712556e-01   3.951160e-02
  3.713456e-01   3.954805e-02
  3.714357e-01   4.043414e-02
  3.715257e-01   4.152307e-02
  3.716157e-01   4.228038e-02
  3.717057e-01   4.274860e-02
  3.717957e-01   4.289195e-02
  3.718858e-01   4.259491e-02
  3.719758e-01   4.181096e-02
  3.720658e-01   4.067121e-02
  3.721558e-01   3.944064e-02
  3.722458e-01   3.844413e-02
  3.723359e-01   3.833046e-02
  3.724259e-01   3.928689e-02
  3.725159e-01   4.067381e-02
  3.726059e-01   4.182890e-02
  3.726960e-01   4.243499e-02
  3.727860e-01   4.245911e-02
  3.728760e-01   4.254462e-02
  3.729660e-01   4.288901e-02
  3.730561e-01   4.286750e-02
  3.731461e-01   4.227294e-02
  3.732361e-01   4.129395e-02
  3.733261e-01   3.993387e-02
  3.734162e-01   3.844007e-02
  3.735062e-01   3.744615e-02
  3.735962e-01   3.753985e-02
  3.736862e-01   3.860664e-02
  3.737762e-01   3.994865e-02
  3.738663e-01   4.129754e-02
  3.739563e-01   4.250898e-02
  3.740463e-01   4.337893e-02
  3.741364e-01   4.383186e-02
  3.742264e-01   4.399992e-02
  3.743164e-01   4.393153e-02
  3.744064e-01   4.369238e-02
  3.744964e-01   4.339199e-02
  3.745865e-01   4.286289e-02
  3.746765e-01   4.206830e-02
  3.747665e-01   4.114628e-02
  3.748565e-01   4.001260e-02
  3.749465e-01   3.850240e-02
  3.750366e-01   3.710202e-02
  3.751266e-01   3.669395e-02
  3.752166e-01   3.759597e-02
  3.753066e-01   3.916699e-02
  3.753967e-01   4.071797e-02
  3.754867e-01   4.198332e-02
  3.755767e-01   4.298530e-02
  3.756667e-01   4.363533e-02
  3.757568e-01   4.368413e-02
  3.758468e-01   4.335869e-02
  3.759368e-01   4.316587e-02
  3.760268e-01   4.325764e-02
  3.761169e-01   4.345394e-02
  3.762069e-01   4.357462e-02
  3.762969e-01   4.370115e-02
  3.763869e-01   4.370764e-02
  3.764769e-01   4.358728e-02
  3.765670e-01   4.336733e-02
  3.766570e-01   4.278205e-02
  3.767470e-01   4.177992e-02
  3.768371e-01   4.075072e-02
  3.769271e-01   3.967961e-02
  3.770171e-01   3.829701e-02
  3.771071e-01   3.693281e-02
  3.771971e-01   3.667180e-02
  3.772872e-01   3.777381e-02
  3.773772e-01   3.947688e-02
  3.774672e-01   4.090018e-02
  3.775572e-01   4.182817e-02
  3.776472e-01   4.252586e-02
  3.777373e-01   4.321870e-02
  3.778273e-01   4.378828e-02
  3.779173e-01   4.420095e-02
  3.780074e-01   4.465411e-02
  3.780974e-01   4.513120e-02
  3.781874e-01   4.538500e-02
  3.782774e-01   4.539071e-02
  3.783674e-01   4.533936e-02
  3.784575e-01   4.539567e-02
  3.785475e-01   4.542050e-02
  3.786375e-01   4.506672e-02
  3.787275e-01   4.457354e-02
  3.788176e-01   4.437709e-02
  3.789076e-01   4.429648e-02
  3.789976e-01   4.407288e-02
  3.790876e-01   4.378510e-02
  3.791776e-01   4.356833e-02
  3.792677e-01   4.328845e-02
  3.793577e-01   4.273001e-02
  3.794477e-01   4.190036e-02
  3.795378e-01   4.084709e-02
  3.796278e-01   3.964350e-02
  3.797178e-01   3.817847e-02
  3.798078e-01   3.657540e-02
  3.798978e-01   3.569352e-02
  3.799879e-01   3.631015e-02
  3.800779e-01   3.804937e-02
  3.801679e-01   3.989176e-02
  3.802579e-01   4.130162e-02
  3.803479e-01   4.244139e-02
  3.804380e-01   4.336365e-02
  3.805280e-01   4.386766e-02
  3.806180e-01   4.399574e-02
  3.807081e-01   4.390062e-02
  3.807981e-01   4.399497e-02
  3.808881e-01   4.453402e-02
  3.809781e-01   4.525239e-02
  3.810681e-01   4.583224e-02
  3.811582e-01   4.607448e-02
  3.812482e-01   4.601796e-02
  3.813382e-01   4.570124e-02
  3.814282e-01   4.521017e-02
  3.815183e-01   4.483715e-02
  3.816083e-01   4.472318e-02
  3.816983e-01   4.474776e-02
  3.817883e-01   4.469473e-02
  3.818783e-01   4.413934e-02
  3.819684e-01   4.282460e-02
  3.820584e-01   4.156713e-02
  3.821484e-01   4.164219e-02
  3.822385e-01   4.294705e-02
  3.823285e-01   4.418304e-02
  3.824185e-01   4.448010e-02
  3.825085e-01   4.403277e-02
  3.825985e-01   4.358950e-02
  3.826886e-01   4.340907e-02
  3.827786e-01   4.329808e-02
  3.828686e-01   4.300629e-02
  3.829586e-01   4.254610e-02
  3.830486e-01   4.204262e-02
  3.831387e-01   4.140865e-02
  3.832287e-01   4.045692e-02
  3.833187e-01   3.917147e-02
  3.834088e-01   3.772004e-02
  3.834988e-01   3.618945e-02
  3.835888e-01   3.488377e-02
  3.836788e-01   3.467712e-02
  3.837688e-01   3.573831e-02
  3.838589e-01   3.728928e-02
  3.839489e-01   3.867397e-02
  3.840389e-01   3.977441e-02
  3.841289e-01   4.077239e-02
  3.842190e-01   4.178494e-02
  3.843090e-01   4.263150e-02
  3.843990e-01   4.320369e-02
  3.844890e-01   4.357003e-02
  3.845791e-01   4.384149e-02
  3.846691e-01   4.405751e-02
  3.847591e-01   4.437230e-02
  3.848491e-01   4.470618e-02
  3.849392e-01   4.479818e-02
  3.850292e-01   4.470666e-02
  3.851192e-01   4.478855e-02
  3.852092e-01   4.513021e-02
  3.852992e-01   4.536698e-02
  3.853893e-01   4.543496e-02
  3.854793e-01   4.539484e-02
  3.855693e-01   4.516528e-02
  3.856593e-01   4.478990e-02
  3.857493e-01   4.476093e-02
  3.858394e-01   4.511123e-02
  3.859294e-01   4.515479e-02
  3.860194e-01   4.501866e-02
  3.861095e-01   4.512233e-02
  3.861995e-01   4.537662e-02
  3.862895e-01   4.554121e-02
  3.863795e-01   4.558155e-02
  3.864696e-01   4.562225e-02
  3.865596e-01   4.563421e-02
  3.866496e-01   4.549914e-02
  3.867396e-01   4.517765e-02
  3.868296e-01   4.486720e-02
  3.869197e-01   4.484567e-02
  3.870097e-01   4.503027e-02
  3.870997e-01   4.503816e-02
  3.871897e-01   4.455601e-02
